N; <sqrt(N)>;error
0;	0.1;	0
1;	0.120711;	0.0207107
2;	0.138209;	0.0211934
3;	0.153657;	0.0215224
4;	0.167647;	0.0217635
5;	0.18053;	0.021949
6;	0.192537;	0.0220967
7;	0.203825;	0.0222176
8;	0.214511;	0.0223187
9;	0.224683;	0.0224045
10;	0.234408;	0.0224784
11;	0.243742;	0.0225429
12;	0.252727;	0.0225996
13;	0.261402;	0.0226499
14;	0.269795;	0.0226949
15;	0.277932;	0.0227355
16;	0.285837;	0.0227722
17;	0.293527;	0.0228056
18;	0.30102;	0.0228362
19;	0.30833;	0.0228642
20;	0.315469;	0.0228901
21;	0.32245;	0.022914
22;	0.329282;	0.0229362
23;	0.335974;	0.0229569
24;	0.342535;	0.0229762
25;	0.348972;	0.0229942
26;	0.355292;	0.0230111
27;	0.361502;	0.023027
28;	0.367606;	0.023042
29;	0.373609;	0.0230561
30;	0.379518;	0.0230695
31;	0.385336;	0.0230821
32;	0.391067;	0.0230941
33;	0.396715;	0.0231055
34;	0.402283;	0.0231163
35;	0.407775;	0.0231266
36;	0.413194;	0.0231364
37;	0.418543;	0.0231458
38;	0.423824;	0.0231548
39;	0.429039;	0.0231634
40;	0.434192;	0.0231716
41;	0.439285;	0.0231795
42;	0.444319;	0.023187
43;	0.449296;	0.0231943
44;	0.454219;	0.0232012
45;	0.459089;	0.023208
46;	0.463908;	0.0232144
47;	0.468677;	0.0232206
48;	0.473397;	0.0232266
49;	0.478072;	0.0232324
50;	0.4827;	0.023238
51;	0.487285;	0.0232434
52;	0.491827;	0.0232486
53;	0.496328;	0.0232537
54;	0.500787;	0.0232586
55;	0.505208;	0.0232633
56;	0.50959;	0.0232679
57;	0.513935;	0.0232723
58;	0.518243;	0.0232766
59;	0.522515;	0.0232808
60;	0.526753;	0.0232849
61;	0.530957;	0.0232888
62;	0.535128;	0.0232927
63;	0.539267;	0.0232964
64;	0.543374;	0.0233
65;	0.54745;	0.0233035
66;	0.551496;	0.023307
67;	0.555513;	0.0233103
68;	0.5595;	0.0233136
69;	0.56346;	0.0233167
70;	0.567391;	0.0233198
71;	0.571296;	0.0233228
72;	0.575174;	0.0233258
73;	0.579026;	0.0233286
74;	0.582853;	0.0233314
75;	0.586655;	0.0233342
76;	0.590432;	0.0233368
77;	0.594185;	0.0233395
78;	0.597915;	0.023342
79;	0.601621;	0.0233445
80;	0.605305;	0.0233469
81;	0.608966;	0.0233493
82;	0.612605;	0.0233516
83;	0.616223;	0.0233539
84;	0.61982;	0.0233561
85;	0.623396;	0.0233583
86;	0.626952;	0.0233605
87;	0.630488;	0.0233626
88;	0.634003;	0.0233646
89;	0.6375;	0.0233666
90;	0.640977;	0.0233686
91;	0.644436;	0.0233705
92;	0.647876;	0.0233724
93;	0.651298;	0.0233743
94;	0.654702;	0.0233761
95;	0.658088;	0.0233779
96;	0.661457;	0.0233796
97;	0.664809;	0.0233813
98;	0.668144;	0.023383
99;	0.671463;	0.0233847
